ephemeris_time[s],position_i_x[m],position_i_y[m],position_i_z[m],velocity_i_x[m/s],velocity_i_y[m/s],velocity_i_z[m/s]
715564027.4963,156763245.9386,-190393643.02541184,95564270.4990822,731.5280577804,-634.4221281717596,132.98336504802236
715571341.8627,162023931.9353,-194926426.171367,96482978.8459601,707.0923875188,-605.2501479322574,118.38289214154844
715580751.2772,168534730.9544,-200453013.18907884,97513617.99116926,677.0422627965,-569.8108622115121,100.91295380644247
715590160.6918,174769366.715,-205656058.9727065,98386069.09765702,648.3616956122,-536.4329528434344,84.7281405526448
715599570.1063,180739888.6927,-210553699.56114495,99111594.6969217,620.8775450338,-504.85673407112046,69.65780767685317
715608979.5209,186456843.2569,-215161841.20328796,99700000.18021005,594.4424482704001,-474.86616912323746,55.56158368780805
715618388.9354,191929490.2049,-219494526.00593194,100159885.85031083,568.9295652003,-446.2798086423517,42.32279056985807
715627798.35,197165976.2691,-223564224.29542544,100498846.07077189,544.2285178062,-418.9439729044354,29.843540226644436
715637207.7645,202173474.02679998,-227382069.5892678,100723627.25093108,520.2421941061,-392.7275481649419,18.04101995931441
715646617.1791,206958294.75550002,-230958052.53263763,100840256.581833,496.8841910615,-367.5179816098753,6.844649817128101
715656026.5936,211525978.5704,-234301179.1254007,100854145.55012357,474.07671709209995,-343.2181614827633,-3.8061286693342566
715665436.0082,215881367.1176,-237419604.4866989,100770176.03567857,451.7488351665,-319.7439821497691,-13.96358251603398
715674845.4227,220028660.7715,-240320745.87434497,100592771.62384214,429.83494299179995,-297.02243841836514,-23.673057026772398
715684254.8373,223971462.3471,-243011379.84516898,100325957.4025372,408.2734078304,-274.99014433466795,-32.97406764251687
715688959.5445,225867149.03579998,-244279720.14154235,100160183.10136902,397.6062824546,-264.21500341268177,-37.48237256388195
715691311.8982,226796212.94709998,-244894970.75910285,100069395.43673636,392.297964188,-258.88492536648516,-39.702727329505976
715692488.075,227256066.9413,-245197905.28111902,100022049.44062343,389.6497239813,-256.2339385142843,-40.80466121931643
715693076.1634,227484826.4524,-245348204.6453093,99997891.21608691,388.3270347076,-254.9119194651607,-41.35359225787661
715693370.2076,227598914.58020002,-245423062.94782877,99985691.14557286,387.6660416699,-254.25177379105472,-41.62755187427055
715693517.2297,227655885.7672,-245460419.32818958,99979560.91408469,387.3356322875,-253.92191632922396,-41.76440558805807
715693590.7408,227684353.1452,-245479079.33489326,99976488.2546943,387.170449285,-253.75704136909724,-41.83280096885237
715693627.4963,227698582.2808,-245488404.79353058,99974950.03975518,387.0878631942,-253.67461732285636,-41.866990796088785
715693664.2518,227712808.3809,-245497727.22272977,99973410.56821942,387.0052807057,-253.59220222884773,-41.901175383526976
715693737.7629,227741251.4755,-245516362.99438584,99970327.85625659,386.8401265214,-253.42739888672298,-41.969528845763975
715693884.785,227798101.2453,-245553598.1997845,99964147.36202367,386.5098612305,-253.09789951499374,-42.10617296672511
715694178.8292,227911655.13709998,-245627923.33201766,99951726.13516967,385.84950219539996,-252.43932944253976,-42.37921037220819
715694766.9176,228138180.5633,-245775993.06951877,99926643.07149409,384.529464206,-251.12389936513614,-42.924284844681424
715695943.0944,228588903.8329,-246069815.11524853,99875517.23990135,381.89205969790004,-248.49984289609012,-44.0104563161382
715698295.448,229481054.37669998,-246648226.5915791,99769448.4335765,376.6275455973,-243.2786576436546,-46.16707754877926
715703000.1553,231228279.27940002,-247768410.98403248,99542212.3891322,366.136563127,-232.9417901124887,-50.41889406757497
715712409.5699,234575175.5498,-249864486.83715355,99028658.11156674,345.2814878306,-212.67380519741258,-58.68783219796623
715721818.9844,237726448.8571,-251772294.0294614,98438697.0304816,324.5462401355,-192.91972373071175,-66.66304911845108
715731228.399,240682937.04799998,-253496537.78884944,97774993.95556167,303.868495393,-173.65301628832583,-74.36512371635561
715740637.8135,243444866.7706,-255041707.11874443,97040032.32399485,283.1802123355,-154.8543379394204,-81.81207590839726
715749106.2866,245763897.3543,-256282842.75216284,96319565.32200795,264.48839461250003,-138.32610684141042,-88.30922299688848
715756727.9124,247715273.24989998,-257281433.5083567,95624729.78376344,247.5516651684,-123.76515172840581,-93.99913165250393
715763199.9172,249270550.2093,-258043076.82122195,95001040.2375045,233.0418097246,-111.63700398060271,-98.71860716753693
715764453.2564,249560857.14790002,-258181540.37345752,94876746.62104207,230.2148028968,-109.31384644207176,-99.62097507452441
715771045.722,251029266.2951,-258862240.34528878,94204497.3168601,215.232889982,-97.234187173782,-104.3069613908248
715777638.1876,252398186.8889,-259464101.56689993,93501684.48945048,200.0225271461,-85.39821942497376,-108.89374333768635
715780934.4204,253044820.92339998,-259735980.8259846,93139018.80778934,192.3118091493,-79.57642059676128,-111.15085981087223
715784230.6533,253665904.8978,-259988780.5035829,92768952.32047178,184.518245749,-73.82209623673718,-113.38426428282429
715787526.8861,254261148.2185,-260222727.98699337,92391562.61257419,176.6309866243,-68.13835213318855,-115.59430630330104
715790823.1189,254830222.2022,-260438061.79940674,92006926.1074329,168.6377250352,-62.52885248353386,-117.78134367421778
715794119.3517,255372754.8073,-260635033.57938743,91615118.01604319,160.52441371449999,-56.99790610783423,-119.94575581908697
715797415.5845,255888324.3511,-260813910.3695098,91216212.23908782,152.2749120883,-51.55056962428947,-122.08796230464964
715800711.8173,256376451.9055,-260974977.27944264,90810281.19393465,143.87054530359998,-46.192771301132986,-124.20844851937845
715804008.0501,256836592.063,-261118540.5973533,90397395.54176973,135.2895478114,-40.93146018687843,-126.30780158925195
715807304.2829,257268121.6288,-261244931.44170713,89977623.77370559,126.50635469939999,-35.77478615038925,-128.38676097337967
715810600.5157,257670325.659,-261354510.06713092,89551031.59705815,117.49068989189999,-30.73231766504652,-130.44629034520545
715813896.7486,258042380.0688,-261447670.9613115,89117681.03791566,108.206379992,-25.81530548050535,-132.48768068750726
715815544.865,258216808.5207,-261488228.86425632,88898489.42981765,103.4501919854,-23.40789854246432,-133.50210214083344
715817192.9814,258383329.7337,-261524848.89902028,88677629.12981617,98.60979273507999,-21.037001521689067,-134.5126997642903
715818841.0978,258541799.28509998,-261557592.8894342,88455106.17566317,93.67822167639001,-18.70464658689187,-135.51980491408028
715820489.2142,258692060.6556,-261586526.15264535,88230926.00746208,88.64775394707,-16.413043019068255,-136.52381157986744
715822137.3306,258833943.8937,-261611717.80392477,88005093.35591441,83.50979066097,-14.164593385801247,-137.5251899165017
715823785.447,258967264.0687,-261633241.08914226,87777612.10270293,78.25473014546,-11.961910974625866,-138.5245028738693
715825433.5634,259091819.49580002,-261651173.74773768,87548485.11151291,72.87181577874,-9.80783838926299,-139.5224268191313
715827081.6798,259207389.6891,-261665598.40631473,87317714.02060133,67.34895543604,-7.705467117967636,-140.51977721816513
715827905.738,259261730.7033,-261671522.49707922,87201712.05298126,64.53084943674001,-6.6747085835792745,-141.01853795069
715828729.7962,259313732.9874,-261676603.0056241,87085298.98802114,61.672506264389995,-5.658157717396243,-141.51754076888784
715829553.8544,259363362.5727,-261680851.83007234,86968474.56262626,58.77193596654,-4.656279945320279,-142.01694239527401
715830377.9126,259410583.7969,-261684281.26050836,86851238.37816466,55.82701663589,-3.6695599897578433,-142.51691587513807
715831201.9708,259455359.1909,-261686903.99414158,86733589.88585323,52.8354832813,-2.6985024255133254,-143.01765247378125
715831613.9999,259476817.469,-261687916.9332046,86674610.80802988,51.32148640578,-2.21901027313298,-143.26837221964138
715832026.029,259497649.357,-261688733.15267596,86615528.3713341,49.794915539479994,-1.7436321819907548,-143.51936382592152
715832438.0581,259517849.6065,-261689354.36199412,86556342.45768659,48.25544164811,-1.2724370189009235,-143.77065732636473
715832850.0872,259537412.8313,-261689782.29894945,86497052.93615556,46.70272422018,-0.8054949711101358,-144.02228434826574
715833056.1018,259546953.8373,-261689924.34130937,86467369.27788354,45.921289506849995,-0.5736411618520876,-144.1482332724574
715833159.109,259551663.88189998,-261689977.47855306,86452517.71606982,45.52928349582,-0.45812251262906756,-144.21124346344493
715833262.1163,259556333.5023,-261690018.73064944,86437659.66249217,45.13641076078,-0.3428775532437385,-144.2742782075543
715833365.1236,259560962.6091,-261690048.1258378,86422795.11461459,44.742665523279996,-0.22790742978757095,-144.33733806403418
715833416.6272,259563261.9418,-261690058.38588107,86415360.40446058,44.54546389627,-0.17052579110550425,-144.36887758619264
715833442.3791,259564407.798,-261690062.40815455,86411642.44022457,44.44678051046,-0.14186089067985108,-144.38464977703632
715833455.255,259564979.773,-261690064.14249927,86409783.30576524,44.397418134279995,-0.12753492808685252,-144.39253648380785
715833461.6929,259565265.5221,-261690064.94046167,86408853.70044641,44.37273177024,-0.12037356969516821,-144.39647999052403
715833468.1309,259565551.1122,-261690065.692413,86407924.06977254,44.34804195369,-0.11321329362032628,-144.40042359965884
715833474.5688,259565836.5434,-261690066.39826164,86406994.4137039,44.32334868322,-0.10605410012540517,-144.4043673113163
715833481.0068,259566121.8157,-261690067.05791566,86406064.73220064,44.29865195737,-0.09889598951320977,-144.40831112569202
715833493.8827,259566691.883,-261690068.23919868,86404205.29311073,44.24924813399,-0.08458301799844037,-144.4161990630102
715833519.6345,259567830.109,-261690070.04887435,86400486.11015661,44.15039895917,-0.05597008191628561,-144.43197617613603
715833571.1381,259570098.92069998,-261690071.45888916,86393046.52529849,43.952534172890005,0.0012036988839412288,-144.46353538829288
715833674.1454,259574605.9433,-261690065.4539999,86378162.47852196,43.55613624739,0.11534238591767121,-144.5266740119086
715833777.1527,259579072.08789998,-261690047.70624298,86363271.92656122,43.15884219222,0.22920160051508986,-144.58984006005144
715833880.16,259583497.262,-261690018.24472678,86348374.86663583,42.760645969399995,0.34278017059822474,-144.65303412985975
715834086.1745,259592224.32450002,-261689924.29597896,86318561.21100996,41.96152259995,0.5690906628459516,-144.7795087632807
715834498.2036,259609182.6575,-261689597.1146299,86258855.67113212,40.35217808225,1.018291759624887,-145.0328214742402
715834910.2327,259625474.78980002,-261689085.79922697,86199045.65358807,38.72769666999,1.462868825843202,-145.2866532927219
715835322.2618,259641094.39819998,-261688392.27123213,86139130.93565343,37.08765741761,1.9027436874575798,-145.54104762892348
715835734.2909,259656034.9829,-261687518.48431313,86079111.27613047,35.4316237578,2.3378368583625644,-145.79605029732784
715836558.3491,259683852.1585,-261685238.1146352,85958756.06963718,32.069744452870005,3.193353728244979,-146.30807681567416
715837382.4073,259708870.53019997,-261682260.99020875,85837977.6974602,28.63822505694,4.0287580804102845,-146.82315341840265
715838206.4655,259731031.0285,-261678603.9638992,85716773.4561057,25.1329309837,4.843369248123992,-147.34174987416105
715839030.5237,259750271.04270002,-261674284.45738718,85595140.23262888,21.54939685128,5.636488761209044,-147.8643916997928
715839854.5819,259766524.1342,-261669320.47416422,85473074.4553026,17.88279303661,6.407402465571494,-148.39166769450065
715840678.6401,259779719.7196,-261663730.61178052,85350572.03771636,14.12788822914,7.155383391159113,-148.92423861411308
715841502.6984,259789782.72980002,-261657534.07106,85227628.3170478,10.27900705214,7.879695636643433,-149.46284729622104
715843150.8148,259800185.9332,-261643400.80021977,84980394.98085491,2.2741037471439998,9.254357245190995,-150.56163132943067
715844634.1195,259797975.8742,-261628811.0746532,84756314.34089553,-5.31953792671,10.40324886362125,-151.5807702951432
715845969.0938,259786114.5769,-261614274.80887884,84553328.72959259,-12.510306223079999,11.362263826441371,-152.5288019697381
715847304.0681,259764404.85930002,-261598507.233625,84349054.22182807,-20.08141920621,12.247554842498914,-153.51298860023627
715848639.0424,259732307.7008,-261581608.1765313,84143437.16427371,-28.08097505023,13.057138010599793,-154.54170530495486
715849974.0167,259689214.5239,-261563679.52256495,83936411.39707837,-36.56534952681,13.789988345323579,-155.6254010632265
715851308.991,259634434.98839998,-261544823.6003607,83727895.09941868,-45.600995026679996,14.446572119858857,-156.77720582770465
715852643.9653,259567182.0871,-261525140.7072075,83517786.6940269,-55.266706171799996,15.029623075761187,-158.01374612072897
715853978.9395,259486553.8294,-261504725.37117884,83305959.47828165,-65.65648857488,15.54527887060432,-159.3562518269308
715855313.9138,259391510.5787,-261483660.74655542,83092254.50854683,-76.88320850091999,16.004753966824694,-160.83207376331202
715856648.8881,259280846.9398,-261462010.33082265,82876471.13123453,-89.08325583538,16.426825074026375,-162.47679042163605
715857983.8624,259153156.4844,-261439805.50530124,82658354.1053246,-102.4225067982,16.841544663390167,-164.33715999702287
715858200.2221,259130751.8159,-261436153.30122408,82622763.2705383,-104.7049088838,16.910875218194327,-164.66292750087834
715858200.2221,259130750.1223,-261436154.18654937,82622763.0612167,-104.70484791129999,16.910945282458982,-164.6629285537212
715858428.7089,259106549.0605,-261432280.89078584,82585099.8814117,-107.1544154388,16.985516048090894,-165.01517127322052
715859202.5569,259020328.0829,-261419034.88047567,82456922.38485497,-115.7658849424,17.25302584162487,-166.27608909142887
715859976.4049,258927243.08670002,-261405569.61373553,82327724.62041724,-124.9031811158,17.55493394745895,-167.65507997491835
715860750.2529,258826865.8636,-261391851.50849944,82197407.71489953,-134.6225062219,17.910014224285057,-169.1721347127964
715861524.1009,258718721.91289997,-261377830.49471095,82065855.83497111,-144.9874500632,18.342312383606306,-170.85122474491342
715862297.9488,258602284.3524,-261363435.39410907,81932932.77339733,-156.0699879808,18.882633088865887,-172.72121345949176
715863071.7968,258476967.007,-261348567.9611615,81798477.73023327,-167.951550803,19.570472135757576,-174.81699600683362
715863845.6448,258342116.68420002,-261333095.24476138,81662300.1255673,-180.7241169927,20.456532099269715,-177.18092466615087
715864619.4928,258197004.5851,-261316839.6826969,81524173.15136464,-194.4912385027,21.606001204148498,-179.86458907704449
715865393.3408,258040817.0448,-261299566.33131877,81383825.8121829,-209.368834704,23.102822290291414,-182.93102844162098
715866253.1718,257853177.4276,-261278801.23187062,81224882.65631053,-227.35869979109998,25.306008190373504,-186.88160155938613
715866683.0874,257753378.5437,-261267634.2589715,81144066.94434695,-236.98723133,26.677380493346433,-189.10989622286
715867113.0029,257649343.0503,-261255831.91774556,81062252.32020569,-247.07207084249998,28.267129814124928,-191.5320362086942
715867542.9185,257540869.1352,-261243293.10054716,80979350.86669968,-257.6395319475,30.109669343984578,-194.16973366633908
715867972.834,257427743.5944,-261229900.81464338,80895264.79130565,-268.7162243657,32.2446031055684,-197.04725998051973
715868402.7496,257309741.8089,-261215519.79508284,80809885.27137429,-280.32854594730003,34.71745350247028,-200.1916972966993
715868832.6651,257186627.97550002,-261199993.79446837,80723091.19308814,-292.5019858904,37.580452900320964,-203.63318407341907
715869262.5807,257058155.6935,-261183142.51600716,80634747.78781198,-305.2601885982,40.89338413361257,-207.4051375025047
715869692.4962,256924069.00640002,-261164758.1850893,80544705.18333004,-318.623719962,44.72444199045327,-211.54442798200736
715870122.4117,256784104.0585,-261144601.74936345,80452796.89561643,-332.608468991,49.151069729608494,-216.09147039495204
715870552.3273,256637991.5212,-261122398.74102286,80358838.308323,-347.2236144254,54.26069857990056,-221.09018374393122
715870982.2428,256485460.00980002,-261097834.85236806,80262625.20722757,-362.4690870616,60.15128501651576,-226.58775491016763
715871412.1584,256326240.7043,-261070551.35474902,80163932.47405182,-378.33247059390004,66.9314971985911,-232.63412374491304
715871842.0739,256160073.42450002,-261040140.56151566,80062513.08552508,-394.7853130649,74.72035126714566,-239.28108798283938
715872271.9895,255986714.4208,-261006141.583833,79958097.58808737,-411.77888479250004,83.64603799806055,-246.58090989074554
715872701.905,255805946.0825,-260968036.83668998,79850394.30869615,-429.23950196299995,93.84363177669246,-254.58429943608888
715873131.8206,255617588.7086,-260925249.82706773,79739090.58589663,-447.06368019390004,105.45133412739101,-263.33765792001446
715873561.7361,255421514.3231,-260877144.93278116,79623855.35940747,-465.1135640339,118.60491225812662,-272.879505438175
715873991.6517,255217662.2821,-260823030.01179695,79504343.47369032,-483.21330106159996,133.43007384183204,-283.2360979117487
715874421.5672,255006056.0777,-260762162.75163627,79380202.01792194,-501.14725645659996,150.0327130098471,-294.41637716488094
715874851.4827,254786820.3249,-260693761.6272707,79251078.92272612,-518.6611347021,168.48729777925917,-306.4065924449079
715875329.1667,254534574.7479,-260607945.6609314,79101352.9450165,-537.2773452899,191.19946580631614,-320.6273520675598
715875568.0086,254405186.80249998,-260560831.38440293,79023889.77370863,-546.1245415594001,203.41743722773313,-328.0628625797542
715875806.8506,254273730.125,-260510732.02597463,78944627.11955754,-554.5911726552,216.19276646787742,-335.6925123498452
715876045.6926,254140302.1722,-260457516.8876198,78863521.0626211,-562.6224498183,229.50400133755153,-343.49526561751895
715876284.5346,254005013.3314,-260401061.23988432,78780533.08399583,-570.1650603763,243.32259151928446,-351.4469532449376
715876523.3765,253867986.4246,-260341248.02615008,78695630.79076853,-577.1683607486,257.61288749019127,-359.5205050046252
715876762.2185,253729355.9392,-260277969.52342016,78608788.56627901,-583.5855912630999,272.33236523016,-367.68629495715686
715877001.0605,253589266.9464,-260211128.94764847,78519988.13284978,-589.3750501234,287.4320832986297,-375.91259086234385
715877239.9024,253447873.7644,-260140641.90404406,78429218.99015611,-594.5011763099,302.8573755046721,-384.1660993790824
715877478.7444,253305338.37690002,-260066437.65027565,78336478.71523154,-598.9354806254,318.5487595476753,-392.4125857352024
715877717.5864,253161828.651,-259988460.11894262,78241773.10778718,-602.6572750344001,334.44303041581213,-400.6175430889348
715877837.0074,253089762.00640002,-259948043.0548229,78193687.36416368,-604.246774518,342.44578038304604,-404.69376038729
715877896.7178,253053660.2179,-259927475.70984995,78169462.27302381,-604.9732576685,346.45741531728027,-406.7234657654023
715877926.5731,253035593.3969,-259917102.16812658,78157304.32523862,-605.3194079008,348.46533956590247,-407.7359919241446
715877941.5007,253026556.1535,-259911892.91231605,78151214.02139702,-605.4882087972,349.4697710290141,-408.24164545141434
715877948.9645,253022036.5921,-259909282.6612276,78148166.03968619,-605.5715406250999,349.9720969256632,-408.4943163580958
715877952.6964,253019776.5789,-259907976.12963375,78146641.34171736,-605.6129393824,350.223286519105,-408.6206124147834
715877954.5624,253018646.5144,-259907322.51233047,78145878.81600356,-605.6335719718,350.34888786036674,-408.6837505376958
715877956.4283,253017516.4115,-259906668.66064698,78145116.17248437,-605.6541600355,350.4744935251946,-408.7468820380617
